x(i)	y(i)	theta(i)
0.251839	0.138808	0.411958
0.255680	0.140514	0.423993
0.259537	0.142282	0.435772
0.263408	0.144112	0.447318
0.267291	0.146002	0.458651
0.271183	0.147951	0.469793
0.275083	0.149959	0.480762
0.278989	0.152023	0.491576
0.282899	0.154143	0.502253
0.286810	0.156318	0.512809
0.290720	0.158547	0.523260
0.294629	0.160829	0.533622
0.298532	0.163162	0.543909
0.302429	0.165546	0.554135
0.306318	0.167980	0.564315
0.310196	0.170463	0.574461
0.314062	0.172993	0.584588
0.317913	0.175569	0.594708
0.321747	0.178191	0.604834
0.325562	0.180857	0.614979
0.329357	0.183567	0.625155
0.333129	0.186318	0.635376
0.336876	0.189111	0.645652
0.340597	0.191944	0.655999
0.344288	0.194816	0.666426
0.347949	0.197727	0.676949
0.351576	0.200674	0.687579
0.355169	0.203657	0.698330
0.358725	0.206675	0.709215
0.362241	0.209726	0.720247
0.365717	0.212811	0.731442
0.369150	0.215927	0.742812
0.372537	0.219073	0.754374
0.375877	0.222250	0.766141
0.379168	0.225454	0.778131
0.382408	0.228687	0.790358
0.385595	0.231945	0.802840
0.388726	0.235229	0.815594
0.391800	0.238538	0.828638
0.394815	0.241869	0.841990
0.397768	0.245223	0.855671
0.400658	0.248598	0.869700
0.403483	0.251993	0.884098
0.406240	0.255407	0.898888
0.408927	0.258839	0.914091
0.411543	0.262287	0.929731
0.414086	0.265752	0.945833
0.416553	0.269231	0.962421
0.418942	0.272725	0.979522
0.421251	0.276230	0.997163
0.423479	0.279748	1.015372
0.425623	0.283276	1.034177
0.427682	0.286813	1.053607
0.429652	0.290359	1.073692
0.431533	0.293913	1.094462
0.433322	0.297473	1.115947
0.435017	0.301038	1.138178
0.436616	0.304607	1.161184
0.438117	0.308179	1.184995
0.439520	0.311754	1.208420
0.440831	0.315330	1.229971
0.442060	0.318909	1.249533
0.443216	0.322488	1.267010
0.444308	0.326069	1.282322
0.445345	0.329651	1.295402
0.446336	0.333234	1.306198
0.447289	0.336817	1.314668
0.448215	0.340400	1.320782
0.449123	0.343984	1.324517
0.450020	0.347568	1.325862
0.450917	0.351151	1.324811
0.451823	0.354734	1.321366
0.452745	0.358316	1.315539
0.453695	0.361898	1.307350
0.454680	0.365478	1.296825
0.455710	0.369057	1.284005
0.456794	0.372634	1.268940
0.457940	0.376209	1.251694
0.459159	0.379783	1.232344
0.460458	0.383354	1.210984
0.461848	0.386923	1.187724
0.463335	0.390489	1.163605
0.464922	0.394052	1.140435
0.466605	0.397612	1.118234
0.468381	0.401169	1.096975
0.470250	0.404723	1.076631
0.472207	0.408272	1.057173
0.474252	0.411818	1.038571
0.476381	0.415360	1.020794
0.478591	0.418897	1.003812
0.480881	0.422430	0.987596
0.483249	0.425958	0.972115
0.485691	0.429481	0.957342
0.488205	0.432998	0.943249
0.490789	0.436510	0.929808
0.493441	0.440017	0.916993
0.496158	0.443518	0.904781
0.498937	0.447012	0.893147
0.501777	0.450501	0.882068
0.504674	0.453982	0.871524
0.507627	0.457458	0.861493
0.510633	0.460926	0.851956
0.513689	0.464387	0.842896
0.516794	0.467840	0.834295
0.519944	0.471286	0.826136
0.523138	0.474725	0.818406
0.526373	0.478155	0.811089
0.529646	0.481577	0.804173
0.532956	0.484990	0.797645
0.536299	0.488395	0.791495
0.539674	0.491791	0.785710
0.543077	0.495178	0.780282
0.546507	0.498556	0.775205
0.549961	0.501924	0.770481
0.553438	0.505284	0.766109
0.556936	0.508636	0.762084
0.560454	0.511980	0.758402
0.563988	0.515318	0.755059
0.567539	0.518649	0.752052
0.571103	0.521974	0.749378
0.574679	0.525294	0.747035
0.578267	0.528609	0.745020
0.581862	0.531919	0.743331
0.585465	0.535226	0.741967
0.589073	0.538530	0.740927
0.592685	0.541832	0.740209
0.596298	0.545131	0.739813
0.599912	0.548429	0.739739
0.603524	0.551726	0.739988
0.607132	0.555022	0.740559
0.610735	0.558318	0.741455
0.614331	0.561616	0.742675
0.617919	0.564914	0.744223
0.621496	0.568214	0.746099
0.625061	0.571516	0.748307
0.628612	0.574822	0.750849
0.632148	0.578130	0.753729
0.635666	0.581443	0.756950
0.639165	0.584760	0.760515
0.642643	0.588082	0.764430
0.646099	0.591410	0.768699
0.649530	0.594743	0.773327
0.652936	0.598084	0.778319
0.656313	0.601432	0.783682
0.659661	0.604787	0.789421
0.662977	0.608150	0.795542
0.666261	0.611523	0.802054
0.669510	0.614905	0.808962
0.672722	0.618297	0.816274
0.675896	0.621699	0.823998
0.679030	0.625112	0.832143
0.682122	0.628537	0.840716
0.685171	0.631974	0.849726
0.688174	0.635423	0.859181
0.691131	0.638886	0.869092
0.694038	0.642363	0.879466
0.696896	0.645853	0.890313
0.699701	0.649359	0.901641
0.702452	0.652880	0.913461
0.705148	0.656417	0.925780
0.707786	0.659970	0.938608
0.710365	0.663540	0.951953
0.712883	0.667128	0.965823
0.715338	0.670734	0.980225
0.717729	0.674359	0.995167
0.720054	0.678002	1.010654
0.722311	0.681666	1.026691
0.724499	0.685349	1.043283
0.726615	0.689054	1.060433
0.728658	0.692780	1.078141
0.730626	0.696528	1.096408
0.732518	0.700298	1.115233
0.734331	0.704091	1.134610
0.736064	0.707908	1.154535
0.737716	0.711749	1.175000
0.739284	0.715614	1.195665
0.740770	0.719504	1.216004
0.742175	0.723417	1.235994
0.743501	0.727353	1.255617
0.744750	0.731311	1.274859
0.745922	0.735291	1.293706
0.747020	0.739292	1.312147
0.748046	0.743314	1.330170
0.749000	0.747356	1.347767
0.749884	0.751417	1.364932
0.750700	0.755497	1.381658
0.751450	0.759595	1.397941
0.752135	0.763710	1.413777
0.752756	0.767842	1.429165
0.753316	0.771991	1.444104
0.753816	0.776156	1.458593
0.754257	0.780335	1.472633
0.754641	0.784530	1.486227
0.754970	0.788738	1.499375
0.755245	0.792959	1.512081
0.755467	0.797193	1.524348
0.755639	0.801440	1.536180
0.755762	0.805698	1.547582
0.755838	0.809966	1.558557
0.755867	0.814245	1.569111
0.755853	0.818534	1.579248
0.755795	0.822832	1.588972
0.755697	0.827139	1.598291
0.755559	0.831453	1.607207
0.755383	0.835775	1.615727
0.755170	0.840103	1.623855
0.754923	0.844438	1.631597
0.754643	0.848778	1.638957
0.754331	0.853123	1.645884
0.753990	0.857472	1.652208
0.753622	0.861826	1.657919
0.753230	0.866183	1.663023
0.752816	0.870544	1.667522
0.752384	0.874908	1.671421
0.751936	0.879275	1.674723
0.751474	0.883644	1.677432
0.751001	0.888015	1.679550
0.750520	0.892388	1.681078
0.750033	0.896762	1.682018
0.749544	0.901137	1.682372
0.749054	0.905513	1.682140
0.748566	0.909889	1.681322
0.748083	0.914265	1.679918
0.747608	0.918640	1.677926
0.747143	0.923015	1.675345
0.746691	0.927389	1.672174
0.746254	0.931761	1.668409
0.745836	0.936131	1.664048
0.745438	0.940500	1.659089
0.745063	0.944865	1.653526
0.744715	0.949228	1.647357
0.744395	0.953588	1.640577
0.744107	0.957944	1.633183
0.743852	0.962296	1.625169
0.743634	0.966644	1.616532
0.743455	0.970987	1.607268
0.743318	0.975326	1.597371
0.743225	0.979659	1.586838
0.743180	0.983986	1.575667
0.743184	0.988308	1.563853
0.743241	0.992623	1.551395
0.743352	0.996931	1.538291
0.743522	1.001232	1.524541
0.743751	1.005526	1.510144
0.744044	1.009812	1.495105
0.744402	1.014090	1.479424
0.744828	1.018360	1.463109
0.745325	1.022620	1.446166
0.745895	1.026872	1.428603
0.746541	1.031114	1.410433
0.747267	1.035346	1.391667
0.748073	1.039568	1.372324
0.748964	1.043780	1.352491
0.749939	1.047980	1.332869
0.750998	1.052170	1.313634
0.752139	1.056347	1.294789
0.753361	1.060513	1.276336
0.754661	1.064666	1.258274
0.756040	1.068807	1.240602
0.757495	1.072935	1.223319
0.759025	1.077049	1.206423
0.760628	1.081150	1.189909
0.762303	1.085237	1.173773
0.764048	1.089309	1.158011
0.765863	1.093366	1.142618
0.767745	1.097409	1.127588
0.769693	1.101436	1.112914
0.771706	1.105447	1.098590
0.773782	1.109442	1.084610
0.775919	1.113420	1.070967
0.778117	1.117382	1.057653
0.780374	1.121326	1.044662
0.782688	1.125253	1.031986
0.785058	1.129162	1.019617
0.787482	1.133053	1.007549
0.789960	1.136925	0.995773
0.792488	1.140778	0.984283
0.795067	1.144612	0.973071
0.797695	1.148427	0.962130
0.800370	1.152221	0.951453
0.803090	1.155995	0.941033
0.805855	1.159748	0.930862
0.808662	1.163480	0.920935
0.811511	1.167191	0.911243
0.814399	1.170880	0.901782
0.817326	1.174547	0.892544
0.820290	1.178191	0.883523
0.823290	1.181813	0.874713
0.826323	1.185411	0.866108
0.829389	1.188986	0.857702
0.832486	1.192538	0.849489
0.835613	1.196065	0.841465
0.838768	1.199567	0.833623
0.841950	1.203045	0.825959
0.845157	1.206497	0.818467
0.848388	1.209924	0.811187
0.851642	1.213326	0.804160
0.854917	1.216703	0.797386
0.858214	1.220057	0.790864
0.861529	1.223389	0.784595
0.864864	1.226697	0.778578
0.868216	1.229985	0.772813
0.871584	1.233251	0.767301
0.874968	1.236497	0.762039
0.878366	1.239724	0.757030
0.881777	1.242931	0.752271
0.885200	1.246120	0.747764
0.888635	1.249292	0.743507
0.892079	1.252447	0.739501
0.895533	1.255585	0.735746
0.898995	1.258708	0.732242
0.902463	1.261815	0.728988
0.905937	1.264909	0.725985
0.909416	1.267988	0.723234
0.912899	1.271055	0.720734
0.916385	1.274110	0.718486
0.919872	1.277153	0.716490
0.923360	1.280184	0.714748
0.926847	1.283206	0.713259
0.930332	1.286218	0.712025
0.933815	1.289221	0.711047
0.937294	1.292215	0.710326
0.940769	1.295202	0.709862
0.944238	1.298182	0.709659
0.947699	1.301155	0.709716
0.951153	1.304123	0.710035
0.954598	1.307086	0.710619
0.958033	1.310045	0.711470
0.961457	1.312999	0.712589
0.964868	1.315951	0.713978
0.968267	1.318901	0.715641
0.971651	1.321848	0.717579
0.975020	1.324795	0.719796
0.978372	1.327741	0.722293
0.981707	1.330688	0.725075
0.985023	1.333635	0.728144
0.988320	1.336585	0.731504
0.991596	1.339536	0.735157
0.994851	1.342490	0.739108
0.998083	1.345449	0.743360
1.001290	1.348411	0.747917
1.004474	1.351378	0.752784
1.007631	1.354351	0.757963
1.010761	1.357330	0.763459
1.013863	1.360316	0.769277
1.016936	1.363310	0.775421
1.019979	1.366312	0.781895
1.022990	1.369322	0.788704
1.025970	1.372343	0.795852
1.028916	1.375373	0.803343
1.031827	1.378415	0.811183
1.034703	1.381468	0.819375
1.037543	1.384534	0.827924
1.040345	1.387612	0.836835
1.043108	1.390704	0.846111
1.045832	1.393810	0.855756
1.048515	1.396931	0.865775
1.051156	1.400067	0.876129
1.053755	1.403220	0.886410
1.056315	1.406390	0.896496
1.058837	1.409577	0.906370
1.061322	1.412782	0.916017
1.063774	1.416007	0.925422
1.066193	1.419250	0.934571
1.068582	1.422514	0.943450
1.070942	1.425799	0.952047
1.073275	1.429106	0.960350
1.075584	1.432434	0.968350
1.077870	1.435786	0.976036
1.080135	1.439161	0.983400
1.082381	1.442560	0.990434
1.084609	1.445984	0.997133
1.086822	1.449434	1.003491
1.089022	1.452909	1.009503
1.091210	1.456412	1.015166
1.093389	1.459942	1.020478
1.095560	1.463500	1.025437
1.097725	1.467087	1.030043
1.099886	1.470704	1.034296
1.102045	1.474351	1.038198
1.104203	1.478028	1.041750
1.106364	1.481737	1.044956
1.108528	1.485478	1.047818
1.110697	1.489252	1.050341
1.112874	1.493060	1.052530
1.115059	1.496901	1.054389
1.117256	1.500778	1.055925
1.119466	1.504690	1.057144
1.121691	1.508638	1.058053
1.123933	1.512623	1.058658
1.126193	1.516645	1.058968
1.128474	1.520705	1.058990
1.130777	1.524804	1.058732
1.133104	1.528943	1.058202
1.135458	1.533122	1.057409
1.137840	1.537341	1.056362
1.140252	1.541602	1.055069
1.142695	1.545905	1.053538
1.145173	1.550251	1.051780
1.147686	1.554640	1.049802
