x(i)	y(i)	theta(i)
0.300980	0.203842	-0.363629
0.304171	0.202649	-0.351968
0.307350	0.201503	-0.339989
0.310517	0.200405	-0.327708
0.313677	0.199353	-0.315143
0.316829	0.198347	-0.302313
0.319977	0.197388	-0.289240
0.323121	0.196475	-0.275947
0.326265	0.195607	-0.262459
0.329409	0.194786	-0.248802
0.332556	0.194009	-0.235004
0.335708	0.193278	-0.221093
0.338866	0.192591	-0.207098
0.342032	0.191949	-0.193050
0.345208	0.191351	-0.178978
0.348397	0.190797	-0.164914
0.351600	0.190287	-0.150887
0.354818	0.189821	-0.136927
0.358055	0.189398	-0.123064
0.361311	0.189018	-0.109325
0.364588	0.188681	-0.095738
0.367889	0.188386	-0.082329
0.371215	0.188134	-0.069122
0.374569	0.187924	-0.056139
0.377951	0.187755	-0.043402
0.381365	0.187629	-0.030930
0.384812	0.187543	-0.018741
0.388293	0.187499	-0.006849
0.391811	0.187495	0.004731
0.395367	0.187532	0.015989
0.398964	0.187609	0.026914
0.402603	0.187727	0.037499
0.406287	0.187884	0.047737
0.410016	0.188081	0.057623
0.413794	0.188317	0.067156
0.417621	0.188592	0.076334
0.421500	0.188906	0.085156
0.425433	0.189259	0.093623
0.429421	0.189650	0.101739
0.433467	0.190079	0.109506
0.437572	0.190546	0.116928
0.441738	0.191050	0.124012
0.445968	0.191592	0.130762
0.450262	0.192171	0.137216
0.454619	0.192787	0.143615
0.459030	0.193439	0.150035
0.463488	0.194128	0.156507
0.467986	0.194853	0.163060
0.472516	0.195614	0.169724
0.477069	0.196410	0.176531
0.481640	0.197242	0.183509
0.486219	0.198108	0.190690
0.490799	0.199010	0.198107
0.495372	0.199946	0.205795
0.499931	0.200917	0.213791
0.504468	0.201921	0.222135
0.508975	0.202960	0.230872
0.513445	0.204032	0.240048
0.517870	0.205138	0.249718
0.522242	0.206276	0.259942
0.526554	0.207448	0.270786
0.530798	0.208652	0.282326
0.534966	0.209889	0.294648
0.539050	0.211157	0.307849
0.543044	0.212458	0.322044
0.546938	0.213790	0.337361
0.550727	0.215154	0.353951
0.554401	0.216548	0.371992
0.557953	0.217974	0.391688
0.561375	0.219430	0.413283
0.564660	0.220916	0.437065
0.567801	0.222433	0.463375
0.570789	0.223980	0.492619
0.573616	0.225556	0.525283
0.576276	0.227161	0.561948
0.578760	0.228796	0.603303
0.581061	0.230460	0.650170
0.583170	0.232152	0.703506
0.585081	0.233873	0.764410
0.586786	0.235622	0.834091
0.588277	0.237398	0.913791
0.589546	0.239203	1.004626
0.590585	0.241034	1.107314
0.591388	0.242893	1.221784
0.591946	0.244779	1.346744
0.592251	0.246691	1.479400
0.592296	0.248630	1.615579
0.592073	0.250595	1.750397
0.591575	0.252586	1.879248
0.590795	0.254603	1.997027
0.589738	0.256645	2.095517
0.588422	0.258712	2.176299
0.586864	0.260804	2.242303
0.585083	0.262921	2.296189
0.583095	0.265062	2.340179
0.580918	0.267227	2.376055
0.578570	0.269416	2.405212
0.576068	0.271629	2.428735
0.573429	0.273865	2.447464
0.570672	0.276125	2.462041
0.567813	0.278407	2.472959
0.564871	0.280712	2.480586
0.561862	0.283040	2.485192
0.558805	0.285389	2.486965
0.555717	0.287761	2.486022
0.552615	0.290154	2.482417
0.549517	0.292569	2.476147
0.546441	0.295005	2.467150
0.543403	0.297462	2.455311
0.540422	0.299939	2.440848
0.537505	0.302437	2.425922
0.534652	0.304955	2.410899
0.531863	0.307493	2.395789
0.529136	0.310051	2.380601
0.526471	0.312628	2.365344
0.523867	0.315224	2.350028
0.521324	0.317838	2.334662
0.518840	0.320472	2.319258
0.516415	0.323124	2.303826
0.514048	0.325793	2.288375
0.511739	0.328481	2.272919
0.509486	0.331186	2.257466
0.507289	0.333908	2.242029
0.505148	0.336647	2.226619
0.503061	0.339403	2.211246
0.501028	0.342176	2.195921
0.499048	0.344964	2.180657
0.497120	0.347769	2.165463
0.495243	0.350589	2.150350
0.493418	0.353424	2.135330
0.491642	0.356275	2.120412
0.489916	0.359140	2.105606
0.488238	0.362020	2.090922
0.486609	0.364914	2.076371
0.485026	0.367822	2.061960
0.483490	0.370744	2.047699
0.481999	0.373680	2.033597
0.480554	0.376628	2.019661
0.479152	0.379590	2.005899
0.477794	0.382565	1.992319
0.476479	0.385551	1.978927
0.475206	0.388550	1.965730
0.473974	0.391561	1.952734
0.472782	0.394584	1.939945
0.471630	0.397618	1.927367
0.470517	0.400663	1.915006
0.469443	0.403719	1.902866
0.468406	0.406785	1.890952
0.467406	0.409862	1.879265
0.466442	0.412949	1.867811
0.465513	0.416045	1.856592
0.464619	0.419151	1.845609
0.463759	0.422266	1.834867
0.462931	0.425391	1.824366
0.462137	0.428524	1.814108
0.461374	0.431665	1.804095
0.460642	0.434815	1.794327
0.459940	0.437972	1.784805
0.459267	0.441137	1.775530
0.458623	0.444310	1.766503
0.458008	0.447489	1.757723
0.457419	0.450676	1.749190
0.456857	0.453869	1.740905
0.456321	0.457068	1.732867
0.455810	0.460273	1.725075
0.455323	0.463484	1.717529
0.454859	0.466701	1.710229
0.454419	0.469923	1.703173
0.454001	0.473150	1.696361
0.453603	0.476381	1.689792
0.453227	0.479617	1.683465
0.452870	0.482858	1.677379
0.452533	0.486102	1.671533
0.452214	0.489349	1.665926
0.451913	0.492600	1.660556
0.451628	0.495855	1.655424
0.451360	0.499112	1.650528
0.451107	0.502371	1.645866
0.450869	0.505633	1.641439
0.450645	0.508897	1.637245
0.450434	0.512163	1.633283
0.450236	0.515430	1.629552
0.450050	0.518699	1.626051
0.449874	0.521969	1.622781
0.449709	0.525239	1.619740
0.449554	0.528509	1.616927
0.449407	0.531780	1.614342
0.449268	0.535051	1.611985
0.449137	0.538322	1.609855
0.449013	0.541591	1.607952
0.448894	0.544860	1.606275
0.448780	0.548128	1.604826
0.448671	0.551394	1.603602
0.448566	0.554659	1.602606
0.448463	0.557922	1.601836
0.448363	0.561182	1.601294
0.448264	0.564440	1.600979
0.448166	0.567696	1.600892
0.448068	0.570948	1.601034
0.447969	0.574197	1.601405
0.447869	0.577442	1.602006
0.447766	0.580684	1.602838
0.447661	0.583921	1.603902
0.447552	0.587155	1.605200
0.447438	0.590383	1.606731
0.447320	0.593607	1.608499
0.447195	0.596825	1.610546
0.447063	0.600039	1.613008
0.446923	0.603247	1.615898
0.446774	0.606449	1.619218
0.446613	0.609647	1.622969
0.446440	0.612839	1.627153
0.446252	0.616025	1.631772
0.446050	0.619207	1.636826
0.445832	0.622382	1.642318
0.445595	0.625552	1.648248
0.445340	0.628717	1.654617
0.445063	0.631876	1.661426
0.444765	0.635030	1.668675
0.444444	0.638178	1.676365
0.444098	0.641320	1.684494
0.443727	0.644457	1.693063
0.443328	0.647588	1.702069
0.442900	0.650713	1.711511
0.442443	0.653833	1.721386
0.441954	0.656946	1.731693
0.441433	0.660054	1.742426
0.440877	0.663157	1.753582
0.440286	0.666253	1.765155
0.439659	0.669343	1.777139
0.438993	0.672428	1.789529
0.438289	0.675506	1.802315
0.437543	0.678579	1.815489
0.436755	0.681645	1.829043
0.435924	0.684705	1.842964
0.435048	0.687760	1.857241
0.434126	0.690808	1.871863
0.433157	0.693850	1.886814
0.432138	0.696886	1.902080
0.431070	0.699916	1.917647
0.429950	0.702940	1.933496
0.428777	0.705957	1.949610
0.427550	0.708968	1.965972
0.426267	0.711973	1.982561
0.424927	0.714971	1.999358
0.423530	0.717963	2.016341
0.422072	0.720949	2.033490
0.420554	0.723928	2.050783
0.418973	0.726901	2.068198
0.417329	0.729868	2.085713
0.415619	0.732827	2.103304
0.413844	0.735781	2.120950
0.412000	0.738727	2.138629
0.410088	0.741668	2.156317
0.408105	0.744601	2.173963
0.406052	0.747528	2.190893
0.403931	0.750449	2.206872
0.401744	0.753363	2.221937
0.399495	0.756271	2.236123
0.397185	0.759174	2.249465
0.394818	0.762071	2.261997
0.392397	0.764962	2.273749
0.389924	0.767849	2.284751
0.387401	0.770730	2.295031
0.384832	0.773606	2.304615
0.382218	0.776478	2.313529
0.379563	0.779345	2.321795
0.376870	0.782208	2.329434
0.374141	0.785067	2.336466
0.371378	0.787922	2.342908
0.368585	0.790774	2.348777
0.365764	0.793622	2.354089
0.362917	0.796466	2.358856
0.360048	0.799308	2.363090
0.357159	0.802147	2.366801
0.354252	0.804983	2.370000
0.351332	0.807816	2.372693
0.348399	0.810647	2.374887
0.345457	0.813476	2.376588
0.342508	0.816304	2.377798
0.339555	0.819129	2.378520
0.336601	0.821953	2.378756
0.333649	0.824776	2.378505
0.330701	0.827597	2.377767
0.327759	0.830417	2.376538
0.324827	0.833237	2.374815
0.321907	0.836056	2.372592
0.319002	0.838875	2.369862
0.316114	0.841694	2.366618
0.313247	0.844513	2.362850
0.310402	0.847331	2.358548
0.307583	0.850151	2.353698
0.304792	0.852971	2.348288
0.302032	0.855792	2.342301
0.299305	0.858613	2.335720
0.296615	0.861436	2.328526
0.293963	0.864261	2.320700
0.291353	0.867087	2.312218
0.288787	0.869914	2.303056
0.286268	0.872744	2.293187
0.283798	0.875576	2.282585
0.281381	0.878410	2.271217
0.279018	0.881247	2.259053
0.276713	0.884087	2.246058
0.274469	0.886929	2.232195
0.272287	0.889775	2.217427
0.270171	0.892624	2.201713
0.268123	0.895476	2.185012
0.266146	0.898333	2.167281
0.264242	0.901193	2.148476
0.262415	0.904057	2.128552
0.260667	0.906926	2.107463
0.259000	0.909799	2.085166
0.257418	0.912677	2.061617
0.255922	0.915560	2.036781
0.254515	0.918447	2.011392
0.253196	0.921341	1.986038
0.251961	0.924239	1.960777
0.250810	0.927144	1.935671
0.249739	0.930055	1.910777
0.248748	0.932971	1.886153
0.247833	0.935895	1.861857
0.246994	0.938824	1.837942
0.246227	0.941761	1.814460
0.245531	0.944705	1.791458
0.244904	0.947657	1.768981
0.244344	0.950616	1.747069
0.243848	0.953582	1.725761
0.243415	0.956557	1.705088
0.243042	0.959540	1.685080
0.242728	0.962532	1.665761
0.242471	0.965532	1.647153
0.242268	0.968542	1.629273
0.242117	0.971560	1.612135
0.242017	0.974588	1.595750
0.241965	0.977626	1.580125
0.241960	0.980673	1.565266
0.241998	0.983730	1.551174
0.242079	0.986798	1.537850
0.242200	0.989877	1.525294
0.242359	0.992966	1.513500
0.242555	0.996066	1.502465
0.242784	0.999177	1.492182
0.243045	1.002300	1.482645
0.243336	1.005435	1.473846
0.243655	1.008581	1.465776
0.244000	1.011740	1.458427
0.244369	1.014911	1.451789
0.244759	1.018094	1.445853
0.245169	1.021291	1.440609
0.245597	1.024500	1.436048
0.246041	1.027723	1.432161
0.246498	1.030959	1.428937
0.246966	1.034209	1.426367
0.247444	1.037473	1.424442
0.247930	1.040751	1.423154
0.248421	1.044044	1.422493
0.248915	1.047351	1.422452
0.249411	1.050673	1.423021
0.249906	1.054010	1.424193
0.250398	1.057362	1.425960
0.250885	1.060730	1.428315
0.251366	1.064114	1.431249
0.251837	1.067514	1.434756
0.252298	1.070930	1.438829
0.252746	1.074362	1.443460
0.253179	1.077811	1.448642
0.253594	1.081277	1.454369
0.253991	1.084760	1.460632
0.254366	1.088261	1.467426
0.254718	1.091779	1.474742
0.255045	1.095315	1.482572
0.255344	1.098869	1.490910
0.255615	1.102441	1.499746
0.255854	1.106032	1.509073
0.256059	1.109642	1.518881
0.256229	1.113270	1.529160
0.256361	1.116918	1.539901
0.256454	1.120585	1.551093
0.256506	1.124271	1.562726
0.256513	1.127978	1.574786
0.256475	1.131704	1.587263
0.256390	1.135451	1.600141
0.256254	1.139219	1.613409
0.256067	1.143007	1.627050
0.255826	1.146816	1.641050
0.255528	1.150647	1.655393
0.255173	1.154499	1.670061
0.254758	1.158372	1.685037
0.254281	1.162268	1.700302
0.253740	1.166186	1.715838
0.253133	1.170126	1.731625
0.252457	1.174088	1.747643
0.251712	1.178074	1.763871
0.250894	1.182082	1.780289
0.250002	1.186114	1.796874
0.249033	1.190169	1.813606
0.247986	1.194248	1.830463
0.246859	1.198351	1.847422
0.245649	1.202478	1.864463
